t,p,v,a,theta
0,0.0465250884724573,0,0,90
3.15544362088405e-30,0.0465250884724572,2.80964503160208e-55,1.80720862652507e-25,90
0.00046875,0.0465258695507217,0.00463336007199376,16.7987457326483,90.0002734875445
0.00121483055735236,0.0465347496108465,0.0196414606430948,20.631474425647,90.0033827776155
0.00203297019137612,0.0465572117637483,0.0345388940416269,15.2277511509049,90.0112478783284
0.00301851947476303,0.0465974566138395,0.0460348198917935,8.42768331975967,90.0253400650637
0.0042330218489429,0.0466581418310672,0.0529295180299382,3.49510093618889,90.0465908720375
0.00584213347354521,0.0467464129379932,0.0561318047909071,0.948033498176667,90.0775043041293
0.00850720508567896,0.0468978614828277,0.0571380367962844,0.0528054199309913,90.1305502356182
0.0114607148371501,0.0470666963731278,0.0573350299835105,-0.12893806190954,90.1896965117685
0.0140802012778694,0.047216633151781,0.0572898082613029,-0.07340705847475,90.2422318577329
0.0166243624559336,0.0473622509917226,0.0572422659376442,-0.0293261210776033,90.2932624778091
0.0196665985457941,0.0475363077398167,0.0572290021428097,-0.0266473404938664,90.3542704042992
0.0233621554237692,0.0477476589946645,0.0572526012423938,-0.0654268034156937,90.4283666363405
0.0270824569680448,0.0479603155056008,0.0573356626253107,-0.165318561381211,90.5029386847655
0.0301653584377256,0.0481366072708976,0.0572908835476677,-0.130468449745043,90.5647726774115
0.0328117775842792,0.0482879628358153,0.0571991660570867,-0.0464201973177481,90.617870477077
0.0356699626144724,0.0484513347779869,0.0571670985998838,-0.024722463168008,90.6751943559751
0.0391909508285541,0.0486525100954581,0.0571673705646233,-0.0387793525994615,90.7457977964484
0.043121231688604,0.0488769516395755,0.0572312902830431,-0.119236165857128,90.8245864493654
0.0466043390651986,0.0490758171053058,0.0572772806377738,-0.179541567940705,90.8944143672371
0.0494135706879051,0.0492363181390742,0.0571676137488514,-0.0792244168589098,90.9507834332751
0.0520937276025865,0.0493893716513896,0.0571080123627103,-0.0294112368080118,91.0045470011264
0.0552943979714793,0.0495720576939126,0.0570926104385315,-0.0265740539274523,91.0687326756254
0.0591620816877476,0.0497927165049425,0.0571191224518294,-0.0688913862074258,91.1462788226432
0.0629952193761664,0.0500112789770977,0.057212821409519,-0.17901282338228,91.2231088264157
0.0661074600674585,0.0501888251367009,0.0571555497667339,-0.133632754227153,91.2855357627054
0.0687566013531977,0.0503399711967629,0.0570570834949612,-0.04489711901212,91.3386909348083
0.0716430578779036,0.0505045511499196,0.0570244583096901,-0.0237083268841358,91.3965818607711
0.0752329309677019,0.0507091510349215,0.0570247010813199,-0.0386305185729079,91.4685663026679
0.0792404133388014,0.0509374209418295,0.0570946927437713,-0.125669357562988,91.5489003107882
0.0820377848160641,0.0510968537707415,0.0570115898041094,-0.0534039460502483,91.6050224653256
0.0848351562933269,0.0512562123508615,0.0569710031607123,-0.0240766879569112,91.6611297768837
0.0883147020369699,0.0514543431733699,0.056965234363598,-0.032730974658578,91.7309039238624
0.0923377661749538,0.051683297667453,0.057021658335417,-0.10635911871069,91.811554956405
0.0952171891612405,0.0518472312202952,0.0569557333970319,-0.0520440204646287,91.8693163908293
0.0980966121475271,0.0520111017652347,0.0569183998890626,-0.0265829704122495,91.9270678158045
0.101584366447513,0.0522095062286742,0.056913642307032,-0.0365413700612833,91.9970061106193
0.105517853721555,0.0524331499799387,0.0569638010056358,-0.103714369790752,92.075862985731
0.109094162628523,0.0526364221646892,0.0570162672917309,-0.17173789031402,92.147556846826
0.112001403116855,0.0528017644610692,0.0569190250642369,-0.0863736978526263,92.2058870085267
0.11471409584053,0.0529559842984885,0.0568539317825276,-0.0325763981459183,92.2603048194155
0.117876347150944,0.0531356661776633,0.0568344584811016,-0.0266476680513002,92.3237211688763
0.121696211302061,0.0533526157058445,0.0568522344014971,-0.0610789702117932,92.4003108737857
0.125570414501481,0.0535725218550143,0.0569356924095989,-0.161833586935347,92.4779670651263
0.128777665707285,0.0537546262987464,0.0568993037022673,-0.139281203603059,92.5422916163252
0.131481963577017,0.0539082082979182,0.0567986806211535,-0.0500393136404035,92.5965535317261
0.134347901895561,0.0540708663772969,0.0567612041286399,-0.0250149471408092,92.6540344510174
0.137875981359517,0.0542710137195565,0.0567566364875708,-0.0360374488066358,92.7247810149487
0.141871677301192,0.0544975608394292,0.0568133813567729,-0.110796106200524,92.8048825936174
0.145457294715737,0.0547007904479214,0.0568709773864824,-0.184645703982211,92.8767609448116
0.148327523205903,0.0548635873238355,0.0567602428213708,-0.0862961745766834,92.9343536201071
0.151008592608489,0.0550155857545152,0.0566931915198539,-0.031023225429686,92.9881378993758
0.154181116045872,0.0551953450869655,0.0566736234385657,-0.025698792886703,93.0517600420617
0.158051104633981,0.0554145193884409,0.0566928221672372,-0.0625215284378342,93.1293540152211
0.161959819653293,0.0556357449693302,0.0567856251468746,-0.173487863200448,93.2076985186215
0.16514999047528,0.0558163702440666,0.0567415141866177,-0.143792563160303,93.2716831041791
0.167820439800644,0.0559676031307341,0.0566347161939221,-0.0488494394849262,93.325268403307
0.170675127988168,0.0561291576080289,0.0565969290081823,-0.0240719195349568,93.3825236759784
0.174228851883336,0.0563301779566645,0.056592111491389,-0.0356695550610724,93.4537842806659
0.17826695853174,0.056558460892386,0.056653135248938,-0.115663494682884,93.5347343749087
0.181112533059221,0.0567194005830899,0.0565771082891715,-0.0526398227648264,93.5918203639468
0.183958107586703,0.0568802670878691,0.056536693809456,-0.0254022270609661,93.6488937566413
0.187456901462104,0.057077967264073,0.0565295175328791,-0.0346354035107063,93.7190536478738
0.191456019157788,0.0573038084680215,0.0565810473504446,-0.105198801572538,93.7992251583441
0.194354223116341,0.0574675341495918,0.0565148482886589,-0.0525102514395978,93.8573629427468
0.197252427074895,0.0576311926989915,0.0564761458038373,-0.0274575753099045,93.9154909850557
0.200744240115547,0.0578282792433512,0.0564691733601765,-0.0371193244873463,93.9855107293268
0.204672428635521,0.058049873290258,0.056514638212061,-0.101539872999116,94.064261991296
0.208254666229529,0.0582518814453475,0.0565620879696616,-0.166362207923285,94.1360755574591
0.211181191555594,0.058417000062978,0.0564675483945041,-0.0856698877611235,94.1947912150689
0.213913742273087,0.0585711142795872,0.0564021425240216,-0.0333096363295,94.2496069975034
0.217085395304074,0.0587498938093012,0.0563808707267371,-0.0273935178430549,94.3132119095852
0.220902029944358,0.0589649244908133,0.0563957410928785,-0.0609313746732992,94.3897370132328
0.224773433193976,0.0591829062086469,0.0564730586970525,-0.157436614226681,94.4673381142271
0.227991404118746,0.0593641408521722,0.0564363473872002,-0.136454685786094,94.5318771864887
0.230713027588107,0.0595174497515525,0.0563370677451701,-0.0503410477747738,94.5864858284856
0.233591990075016,0.0596795157230324,0.0562982952835251,-0.0257229574465198,94.6442278945658
0.237122726900962,0.0598781753808272,0.0562916229607799,-0.0365818850091763,94.7150277598223
0.241113164984571,0.0601025660225856,0.056344147346955,-0.109157836632658,94.795024358979
0.244700768440896,0.0603042310418957,0.0563969569962899,-0.180079386090996,94.8669432711729
0.247583099854534,0.0604663556567916,0.0562882219522069,-0.0855636384269706,94.9247777075602
0.250277962922572,0.0606178636870793,0.0562208020299802,-0.0315704092421594,94.9788383749955
0.25345794767742,0.0607965405460788,0.0561995243774449,-0.0263350835147385,95.0426101344868
0.257326278209546,0.0610137828665584,0.0562160584937973,-0.0625629846826807,95.1201709195144
0.261231779173045,0.0612329650274548,0.0563034314582629,-0.170069510025762,95.1984517513982
0.264427529182382,0.0614123733533406,0.0562584016485959,-0.141296831377999,95.2625480154848
0.267109203427918,0.0615629492155238,0.0561525512366398,-0.0489751074863952,95.3163578650619
0.26997375900329,0.061723679178464,0.0561135513763169,-0.0246461734799171,95.3738109539579
0.273531089248079,0.0619231803308741,0.0561067196427079,-0.036193263941586,95.4451438509125
0.277565915629877,0.0621493161280287,0.0561640841005789,-0.114634202972891,95.5260284008129
0.280418278082456,0.062309245431952,0.056087546594677,-0.0527872874872838,95.5832503431098
0.283270640535034,0.062469097610575,0.0560458480802035,-0.025904069135582,95.6404598392745
0.286772054562787,0.0626652239609971,0.0560366372249755,-0.0350343228043437,95.7106722745707
0.290770207391637,0.0628890372012812,0.0560848106761331,-0.104359610013369,95.7908246018099
0.294397668117742,0.0630920107075048,0.0561444463338245,-0.183293035080337,95.8635397986047
0.297301772591617,0.0632546144411916,0.0560363370175668,-0.0903553965489435,95.9218104796477
0.299983162909612,0.0634046805526206,0.0559645224025714,-0.0326523136457285,95.9756023987207
0.303129346484868,0.0635806498348734,0.0559409991255441,-0.0258652288714097,96.0386968896179
0.30697935803766,0.0637958718587617,0.0559535401655755,-0.0590456926262608,96.1158913339691
0.310914175209585,0.0640156794189755,0.056039736021296,-0.16656661094481,96.1947598480705
0.314147531038935,0.0641963462900103,0.0560035768279482,-0.147777606955506,96.259606727176
0.316834874484615,0.0643465415694864,0.0558930878052181,-0.0516114714956241,96.3135318159438
0.319671460169655,0.0645049611370467,0.0558510777312045,-0.0249125218052685,96.3704249044284
0.323194932441723,0.0647016390080179,0.0558415934943936,-0.034593040735636,96.4410794755786
0.327234549213499,0.0649269817147539,0.0558936735615371,-0.10885003426506,96.5220614370734
0.330111792222903,0.0650875380714028,0.0558216235297031,-0.0524411747937239,96.5797804940586
0.332989035232307,0.0652480184194682,0.0557802598500484,-0.0268241283778366,96.6374885312643
0.33649269349795,0.0654433356169505,0.0557704220632376,-0.0362996962872845,96.7077458299204
0.340463372592992,0.065664549766853,0.0558153871846616,-0.103337737101057,96.7873478978912
0.344069566640961,0.0658653718728717,0.0558664600437499,-0.174549157639995,96.8596392401923
0.346982478223163,0.0660276777063075,0.0557633697265189,-0.0875148565523781,96.9180845971512
0.349688773808704,0.0661784023953505,0.0556938690380622,-0.0330229852714243,96.9723749140208
0.352851971809362,0.0663544647007958,0.0556699900399802,-0.0268419858283991,97.0358103996057
0.356693196477641,0.0665681495378949,0.0556817692619439,-0.0602592441964998,97.1128284861155
0.360600585144958,0.0667853621434392,0.0557615525230565,-0.162254134386833,97.1911487379917
0.363824711740484,0.0669646317972819,0.0557225205643089,-0.141428697046202,97.2558113074484
0.366526963406624,0.067114911459826,0.0556167213330267,-0.0508081777742431,97.3100335526376
0.369386237491395,0.0672738080888942,0.0555751949012774,-0.0255088305975877,97.3673811723208
0.372919399901373,0.0674700485611111,0.0555653139262198,-0.0358126594110081,97.4382298214565
0.376940860460952,0.0676932619741729,0.0556156320348364,-0.10929179740522,97.5188478205401
0.379818225954341,0.0678530236167659,0.0555426373861413,-0.0527408086236767,97.5765694958305
0.382695591447729,0.0680127068582594,0.0555004422885161,-0.0270872556705041,97.6342800528709
0.386196140420482,0.0682068697866199,0.055489445748699,-0.0363431968264383,97.7044750595861
0.390164767552871,0.0684268541750912,0.0555323883035787,-0.102417573565957,97.784036192855
0.393773919934639,0.0686268223261281,0.0555822235872514,-0.173380326413683,97.8563868080149
0.396691258899887,0.0687885471285349,0.0554796016610591,-0.0876588880399741,97.914920648818
0.399399373251049,0.0689386037654646,0.0554094811993466,-0.0333104902341378,97.9692474950498
0.402560685254953,0.0691136607568556,0.0553846414823196,-0.027024437422656,98.0326452099517
0.406398771421989,0.0693260746155366,0.0553948981889367,-0.0599440104207461,98.109600471146
0.410306917077661,0.0695422094158248,0.0554725158288189,-0.160824627000771,98.1879361007119
0.413535252581411,0.0697207827848512,0.0554336854893997,-0.141113747140545,98.2526827121699
0.416240559560112,0.0698704508178872,0.0553276958995423,-0.0510785425095191,98.3069661980037
0.419099406804815,0.0700284963647896,0.0552853511931145,-0.0257448966241644,98.3643053214736
0.422629684588095,0.070223552028772,0.055274315411333,-0.0358401793213763,98.4350961781715
0.426649801906208,0.0704455206975085,0.0553226137390516,-0.108375658760766,98.5156874325567
0.429530879126696,0.0706046454528559,0.0552497197007282,-0.0527454952054018,98.5734833225654
0.432411956347183,0.0707636900531277,0.0552069818689152,-0.0273626698298723,98.6312682669965
0.435912732629098,0.0709568365721048,0.0551950078932687,-0.0365970867256447,98.7014678207984
0.439877729996778,0.0711754508918099,0.0552361891133914,-0.101959606263815,98.7809562866388
0.443484759494422,0.071374235107759,0.0552837327484298,-0.171589577928863,98.8532646672983
0.446404223076072,0.0715352096821095,0.055181583773974,-0.0871666687461842,98.9118408194915
0.449116286471913,0.0716846771629283,0.0551113610189718,-0.0334891568016777,98.9662467267053
0.452279960723482,0.0718589206082058,0.0550857366649967,-0.02729682249799,99.0296917919019
0.456116694970396,0.072070110980251,0.0550947816841661,-0.060038140760844,99.1066199384289
0.460021522287925,0.0722848901875784,0.0551700472731984,-0.159594932188905,99.1848892937618
0.463249520102311,0.0724624718885207,0.0551303140556633,-0.139862721845528,99.2496291817874
0.465957616575199,0.0726114744742185,0.0550247492364839,-0.0510225256380059,99.3039683606848
0.468819804826189,0.0727688370965976,0.0549818888388427,-0.0259775788352244,99.3613744311985
0.472351253732759,0.0729628842122857,0.0549698974748724,-0.0360854526971878,99.4321887470603
0.476368937792542,0.0731834938894776,0.05501656802356,-0.108062413509994,99.5127312556512
0.479250884174395,0.0733417847912956,0.0549432309808347,-0.0527881143655396,99.570544563421
0.482132830556248,0.0734999934493464,0.0548998413181693,-0.0275475369827879,99.6283469395787
0.485633490852117,0.0736920570710405,0.0548868442843967,-0.0367103114010388,99.6985441737626
0.489597909052748,0.073909416736699,0.0549264428454811,-0.101556808438447,99.7780210733347
0.493205275985449,0.0741071033173719,0.0549724729482083,-0.170647719518787,99.8503362673787
0.496125935486029,0.0742672363075873,0.0548702469296444,-0.0869622116694905,99.90893631387
0.498839117346971,0.074415920610189,0.0547996220068353,-0.0336351971447004,99.9633646377957
0.502003158142341,0.0745891968849185,0.054773159758009,-0.0274690210294283,100.026817057212
0.505839510161029,0.0747991656593041,0.0547809339201322,-0.0599764731188101,100.103737552961
0.509744174113307,0.0750127103690681,0.0548543668494105,-0.158748576649311,100.18200370186
0.512972938152456,0.0751893168568031,0.0548139777419412,-0.139246156241417,100.246758913701
0.515682122145466,0.075337522959904,0.0547083050291159,-0.0510529423972641,100.301119858528
0.518545009280953,0.0754940174707226,0.0546648059820258,-0.0261551422088937,100.358539945089
0.522076492055837,0.0756869453709738,0.0546517862112565,-0.0361934379855859,100.429354943239
0.526093856015525,0.0759062584600681,0.0546968498269052,-0.107644346621934,100.509891066081
0.528976664381156,0.0760636754150274,0.0546231354912865,-0.0527882274715044,100.56772162847
0.531859472746786,0.0762210080802376,0.0545791217903754,-0.0277151879726135,100.625541284906
0.535360379524646,0.0764119611565392,0.0545651195567105,-0.0368241012765499,100.695743461138
0.539324450392989,0.0766280253609612,0.0546031913856942,-0.101210568077881,100.775213418994
0.542931806571469,0.0768245462450714,0.0546476808923211,-0.16973227580423,100.84752845068
0.545853150382263,0.0769837695159114,0.0545453048739332,-0.0867037728050841,100.906142166276
0.548567247148332,0.0771316220529055,0.0544743105163123,-0.0337557624404069,100.960588817995
0.551731880685269,0.077303900356601,0.0544470287137506,-0.0276332263280559,101.02405312175
0.555568215371459,0.0775126156374335,0.0544535616963348,-0.0599366444702601,101.100973271002
0.559472622586289,0.0777248679537143,0.054525206447118,-0.15796732663062,101.17923431872
0.562701661892594,0.077900428440235,0.054484055648086,-0.138582834627723,101.243995050975
0.565411583250529,0.0780477816502256,0.0543782889806538,-0.0510445454227849,101.298370742906
0.568275227827846,0.0782033720111565,0.0543341787331896,-0.0263193600652428,101.35580601226
0.571807086930997,0.0783951514701708,0.0543201462860969,-0.0363036947966421,101.426628553759
0.575824285622036,0.0786131221847891,0.0543636505376371,-0.107275589447573,101.507161373475
0.578707524967424,0.0787696023091828,0.0542895058239739,-0.0527785664242327,101.565000572828
0.581590764312812,0.0789259960706184,0.0542448636244585,-0.0278633466104983,101.622828871791
0.585091894013201,0.079115789842834,0.0542298532297542,-0.0369129097158248,101.693035518944
0.589056045469417,0.0793305283975116,0.054266423351772,-0.100865467321072,101.772507102122
0.59266364351218,0.079525848426328,0.05430946535803,-0.168911547261187,101.844826998148
0.595585427130923,0.0796841088836844,0.054206867422256,-0.0864627680827747,101.903449513937
0.598299980015622,0.0798310675824551,0.0541354782626487,-0.0338625351790521,101.957905308533
0.601464933545459,0.0800022900322446,0.0541073755016627,-0.0277781124226987,102.021376029542
0.60530141447162,0.0802097088855683,0.0541126606042341,-0.0598696030800578,102.098299112921
0.60920595867743,0.0804206374825921,0.0541825819436201,-0.157225178905424,102.176562923469
0.612435316857972,0.0805951105267514,0.0541406909564323,-0.137977748316516,102.241330045002
0.615145651887546,0.0807415563493444,0.0540347754203549,-0.0510338535099074,102.295714021626
0.618009666091947,0.0808961824870515,0.0539900475044515,-0.0264698571928588,102.353156702816
0.621541770122047,0.0810867585299935,0.0539749951825163,-0.0363897843152503,102.423984155642
0.625559095548227,0.08130334855258,0.0540169410915192,-0.106883832355719,102.504519521998
0.628442667119403,0.0814588473405744,0.0539423769969356,-0.0527533236896534,102.562365379452
0.631326238690578,0.0816142577039396,0.0538971152521999,-0.028001814922865,102.620200340374
0.634827610249444,0.0818028458457367,0.0538810989965359,-0.0369920856415188,102.690411837437
0.638791917552761,0.0820162093212019,0.0539161705942562,-0.100512531228007,102.76988654944
0.642399724237488,0.0822102779308648,0.0539577675683049,-0.168083677804043,102.84221063798
0.645321811303479,0.0823675285839124,0.0538549410763778,-0.086203722031029,102.900839229907
0.648036692163084,0.0825135496686541,0.0537831678378972,-0.0339584681468415,102.95530159918
0.651201927115804,0.0826836713469152,0.0537542491743718,-0.0279146425349492,103.018777963549
0.655038605958347,0.0828897447963584,0.0537582858944452,-0.0597917503552087,103.095705015656
0.658943313862144,0.0830992984533051,0.0538264864423492,-0.156473590102432,103.173972116298
0.662172906411177,0.0832726358430688,0.0537838493103998,-0.137354095067065,103.238743937357
0.664883531049385,0.0834181308561845,0.053677793860613,-0.0510096108503371,103.293133715912
0.667747836646254,0.0835717497795724,0.0536324567514816,-0.0266124335238909,103.350582239977
0.671280187437347,0.0837610748244047,0.053616385665605,-0.0364667146908044,103.421414640543
0.675297684955493,0.0839762324759926,0.0536567700254159,-0.106478063642475,103.501953459116
0.678181492133458,0.0841307057441929,0.053581791913687,-0.0527160375314628,103.559804040826
0.681065299311424,0.0842850885343761,0.0535359173350172,-0.0281319599873661,103.617643726825
0.684566889958003,0.084472422598518,0.0535188954821829,-0.0370606878560461,103.687859617247
0.688531401222008,0.0846843601931758,0.0535524636493329,-0.100142421924981,103.767338420099
0.692139424193994,0.0848771291709153,0.0535926192032884,-0.167240585472239,103.839666848145
0.695061739073282,0.0850333265070498,0.0534895687158166,-0.0859304464352091,103.898300005876
